Time [s],T office north [K],T office south [K],T corridor [K],heating power office north [W],heating power office south [W],heating power corridor [W],cooling power office north [W],cooling power office south [W],cooling power corridor [W]
0,293.15,293.15,293.15,0,0,0,0,0,0
600,293.11887,293.11887,293.1064,0,0,0,0,0,0
1200,293.0814,293.0814,293.0666,0,0,0,0,0,0
1800,293.03842,293.03842,293.03055,0,0,0,0,0,0
2400,292.9918,292.9918,292.9983,0,0,0,0,0,0
3000,292.94366,292.94366,292.96988,0,0,0,0,0,0
3600,292.89615,292.89615,292.9448,0,0,0,0,0,0
4200,292.84988,292.84988,292.92184,0,0,0,0,0,0
4800,292.8053,292.8053,292.90073,0,0,0,0,0,0
5400,292.76224,292.76224,292.88098,0,0,0,0,0,0
6000,292.7211,292.7211,292.86255,0,0,0,0,0,0
6600,292.6816,292.6816,292.8452,0,0,0,0,0,0
7200,292.6443,292.6443,292.82898,0,0,0,0,0,0
7800,292.60892,292.60892,292.81384,0,0,0,0,0,0
8400,292.57538,292.57538,292.79947,0,0,0,0,0,0
9000,292.5437,292.5437,292.78577,0,0,0,0,0,0
9600,292.51373,292.51373,292.77277,0,0,0,0,0,0
10200,292.48523,292.48523,292.76013,0,0,0,0,0,0
10800,292.45834,292.45834,292.74802,0,0,0,0,0,0
11400,292.43274,292.43274,292.73624,0,0,0,0,0,0
12000,292.4084,292.4084,292.72476,0,0,0,0,0,0
12600,292.38513,292.38513,292.71347,0,0,0,0,0,0
13200,292.36276,292.36276,292.70233,0,0,0,0,0,0
13800,292.34116,292.34116,292.69125,0,0,0,0,0,0
14400,292.32022,292.32022,292.68015,0,0,0,0,0,0
15000,292.2998,292.2998,292.66898,0,0,0,0,0,0
15600,292.28,292.28,292.65787,0,0,0,0,0,0
16200,292.2606,292.2606,292.64664,0,0,0,0,0,0
16800,292.24146,292.24146,292.63528,0,0,0,0,0,0
17400,292.22253,292.22253,292.62372,0,0,0,0,0,0
18000,292.2038,292.2038,292.61197,0,0,0,0,0,0
18600,292.1853,292.1853,292.5999,0,0,0,0,0,0
19200,292.1668,292.1668,292.58755,0,0,0,0,0,0
19800,292.14832,292.14832,292.57483,0,0,0,0,0,0
20400,292.12985,292.12985,292.56177,0,0,0,0,0,0
21000,292.11145,292.11145,292.54837,0,0,0,0,0,0
21600,292.09302,292.09302,292.53458,0,0,0,0,0,0
22200,292.07452,292.07452,292.5204,0,0,0,0,0,0
22800,292.05597,292.05597,292.50592,0,0,0,0,0,0
23400,292.0374,292.0374,292.49124,0,0,0,0,0,0
24000,292.01877,292.01877,292.4763,0,0,0,0,0,0
24600,292,292,292.4611,0,0,0,0,0,0
25200,291.9812,291.9812,292.44568,0,0,0,0,0,0
25800,291.81323,291.81323,292.55255,0,0,0,0,0,0
26400,291.68988,291.68988,292.6462,0,0,0,0,0,0
27000,291.59824,291.59824,292.72684,0,0,0,0,0,0
27600,291.6541,291.6541,292.79617,8567.851,8567.854,0,0,0,0
28200,292.11905,292.11905,292.8568,18783.238,18783.24,0,0,0,0
28800,292.76175,292.76175,292.91058,23272.541,23272.541,0,0,0,0
29400,293.34167,293.34174,292.9593,22290.51,22290.29,0,0,0,0
30000,293.68344,293.68433,293.00345,17790.324,17784.406,0,0,0,0
30600,293.75845,293.76193,293.04294,12244.266,12212.868,0,0,0,0
31200,293.63214,293.64087,293.0781,7600.716,7500.8555,0,0,0,0
31800,293.40887,293.426,293.10928,4900.9116,4663.9614,0,0,0,0
32400,293.18518,293.21313,293.13687,4279.8374,3804.1365,0,0,0,0
33000,293.02698,293.05594,293.16125,5213.847,4469.2007,0,0,0,0
33600,292.96176,292.98306,293.18277,6883.5737,5930.9414,0,0,0,0
34200,292.9839,292.9934,293.20175,8467.845,7410.798,0,0,0,0
34800,293.05975,293.05865,293.2185,9418.752,8357.675,0,0,0,0
35400,293.14935,293.1401,293.23334,9555.22,8566.664,0,0,0,0
36000,293.2207,293.20706,293.24646,9002.343,8132.3037,0,0,0,0
36600,293.25586,293.24274,293.25815,8072.044,7324.6104,0,0,0,0
37200,293.25388,293.24405,293.2686,7109.6377,6456.8877,0,0,0,0
37800,293.22623,293.22098,293.27792,6369.613,5771.2505,0,0,0,0
38400,293.1888,293.18875,293.28635,5963.9165,5374.006,0,0,0,0
39000,293.15704,293.1605,293.29404,5862.355,5244.431,0,0,0,0
39600,293.13986,293.14377,293.30103,5940.5313,5285.433,0,0,0,0
40200,293.13806,293.14032,293.3075,6055.454,5376.6772,0,0,0,0
40800,293.14728,293.14713,293.3135,6099.1543,5418.3223,0,0,0,0
41400,293.16116,293.1588,293.31915,6020.2944,5357.7686,0,0,0,0
42000,293.1736,293.17,293.32446,5823.395,5192.2583,0,0,0,0
42600,293.18088,293.17706,293.32956,5551.644,4955.188,0,0,0,0
43200,293.18204,293.1787,293.33444,5260.845,4695.32,0,0,0,0
43800,293.1781,293.17548,293.33914,5000.328,4459.1855,0,0,0,0
44400,293.1711,293.169,293.34366,4799.5615,4277.4297,0,0,0,0
45000,293.1634,293.16147,293.34796,4667.5835,4162.5376,0,0,0,0
45600,293.15677,293.15466,293.35202,4598.1934,4111.328,0,0,0,0
46200,293.15228,293.14984,293.35583,4573.4014,4107.797,0,0,0,0
46800,293.15018,293.14734,293.35938,4571.444,4130.6597,0,0,0,0
47400,293.14984,293.14673,293.36267,4574.4463,4161.2837,0,0,0,0
48000,293.15033,293.14706,293.36575,4572.9536,4189.1,0,0,0,0
48600,293.1507,293.14737,293.36862,4566.624,4212.863,0,0,0,0
49200,293.1504,293.14716,293.37128,4561.578,4237.276,0,0,0,0
49800,293.14932,293.14655,293.37375,4565.486,4267.1494,0,0,0,0
50400,293.14767,293.14566,293.376,4583.731,4305.036,0,0,0,0
51000,293.14594,293.14462,293.37808,4617.899,4352.1104,0,0,0,0
51600,293.1445,293.14365,293.38,4665.725,4408.056,0,0,0,0
52200,293.1435,293.14285,293.38177,4723.2393,4471.392,0,0,0,0
52800,293.1426,293.142,293.38336,4788.535,4542.072,0,0,0,0
53400,293.1412,293.14056,293.38477,4864.8643,4624.223,0,0,0,0
54000,293.1389,293.13815,293.38586,4960.3003,4726.2026,0,0,0,0
54600,293.13577,293.13495,293.38663,5083.001,4856.149,0,0,0,0
55200,293.13287,293.13205,293.38702,5233.2734,5013.8643,0,0,0,0
55800,293.1314,293.13065,293.38715,5400.249,5187.906,0,0,0,0
56400,293.13187,293.1312,293.38693,5566.258,5360.2046,0,0,0,0
57000,293.13388,293.13327,293.38644,5715.586,5514.999,0,0,0,0
57600,293.1365,293.136,293.3857,5840.7007,5644.9365,0,0,0,0
58200,293.13895,293.13846,293.38467,5942.874,5751.496,0,0,0,0
58800,293.14063,293.14017,293.38342,6028.7993,5841.51,0,0,0,0
59400,293.14145,293.14102,293.3819,6106.438,5923.029,0,0,0,0
60000,293.1415,293.1411,293.38016,6182.5664,6002.9033,0,0,0,0
60600,293.14114,293.14075,293.37817,6261.6377,6085.625,0,0,0,0
61200,293.14063,293.14023,293.37598,6345.3657,6172.9014,0,0,0,0
61800,293.14023,293.13983,293.37357,6433.0073,6263.966,0,0,0,0
62400,293.14008,293.1397,293.37094,6522.361,6356.611,0,0,0,0
63000,293.1402,293.13983,293.3681,6611.027,6448.456,0,0,0,0
63600,293.14047,293.14014,293.36505,6697.125,6537.645,0,0,0,0
64200,293.1408,293.14047,293.36182,6779.7456,6623.281,0,0,0,0
64800,293.1411,293.14078,293.3584,6859.587,6706.0776,0,0,0,0
65400,293.04605,293.05118,293.23273,0,0,0,0,0,0
66000,292.95544,292.96506,293.11874,0,0,0,0,0,0
66600,292.8732,292.88654,293.01517,0,0,0,0,0,0
67200,292.7984,292.81482,292.92032,0,0,0,0,0,0
67800,292.73145,292.75027,292.8351,0,0,0,0,0,0
68400,292.67075,292.69147,292.75897,0,0,0,0,0,0
69000,292.61417,292.63647,292.68936,0,0,0,0,0,0
69600,292.56122,292.58484,292.62558,0,0,0,0,0,0
70200,292.51053,292.5353,292.56567,0,0,0,0,0,0
70800,292.46225,292.48804,292.50986,0,0,0,0,0,0
71400,292.41638,292.44296,292.4582,0,0,0,0,0,0
72000,292.3729,292.40012,292.4106,0,0,0,0,0,0
72600,292.3309,292.3587,292.36578,0,0,0,0,0,0
73200,292.2904,292.31866,292.32352,0,0,0,0,0,0
73800,292.2515,292.28015,292.28412,0,0,0,0,0,0
74400,292.2142,292.2431,292.24753,0,0,0,0,0,0
75000,292.17786,292.207,292.2126,0,0,0,0,0,0
75600,292.1425,292.17178,292.17932,0,0,0,0,0,0
76200,292.1083,292.13773,292.14813,0,0,0,0,0,0
76800,292.0752,292.1046,292.11874,0,0,0,0,0,0
77400,292.0422,292.0717,292.08957,0,0,0,0,0,0
78000,292.00995,292.0394,292.0616,0,0,0,0,0,0
78600,291.9784,292.0078,292.03482,0,0,0,0,0,0
79200,291.94708,291.97644,292.00848,0,0,0,0,0,0
79800,291.91602,291.9453,291.9825,0,0,0,0,0,0
80400,291.88535,291.91458,291.9572,0,0,0,0,0,0
81000,291.855,291.88412,291.93246,0,0,0,0,0,0
81600,291.82465,291.85367,291.9077,0,0,0,0,0,0
82200,291.7945,291.8234,291.88327,0,0,0,0,0,0
82800,291.76453,291.79333,291.85916,0,0,0,0,0,0
83400,291.73462,291.7633,291.8352,0,0,0,0,0,0
84000,291.70468,291.73322,291.81128,0,0,0,0,0,0
84600,291.6747,291.70313,291.78738,0,0,0,0,0,0
85200,291.64468,291.67297,291.76352,0,0,0,0,0,0
85800,291.6145,291.64267,291.73956,0,0,0,0,0,0
86400,291.58414,291.61218,291.71548,0,0,0,0,0,0
87000,291.55356,291.58145,291.69128,0,0,0,0,0,0
87600,291.52267,291.5504,291.66693,0,0,0,0,0,0
88200,291.4915,291.51907,291.64246,0,0,0,0,0,0
88800,291.45996,291.48743,291.6178,0,0,0,0,0,0
89400,291.42822,291.45554,291.59302,0,0,0,0,0,0
90000,291.3962,291.4234,291.56815,0,0,0,0,0,0
90600,291.36398,291.39102,291.54315,0,0,0,0,0,0
91200,291.33148,291.3584,291.51807,0,0,0,0,0,0
91800,291.299,291.32578,291.49298,0,0,0,0,0,0
92400,291.26648,291.29312,291.4679,0,0,0,0,0,0
93000,291.23386,291.26035,291.44275,0,0,0,0,0,0
93600,291.2011,291.22745,291.41757,0,0,0,0,0,0
94200,291.1686,291.19482,291.3925,0,0,0,0,0,0
94800,291.13632,291.16238,291.36746,0,0,0,0,0,0
95400,291.10413,291.13004,291.34247,0,0,0,0,0,0
96000,291.07202,291.0978,291.3175,0,0,0,0,0,0
96600,291.04007,291.0657,291.29254,0,0,0,0,0,0
97200,291.0083,291.0338,291.2676,0,0,0,0,0,0
97800,290.97668,291.00204,291.24268,0,0,0,0,0,0
98400,290.9452,290.97043,291.21777,0,0,0,0,0,0
99000,290.9138,290.93887,291.1928,0,0,0,0,0,0
99600,290.8825,290.90747,291.16782,0,0,0,0,0,0
100200,290.85135,290.87616,291.14285,0,0,0,0,0,0
100800,290.82016,290.84485,291.11774,0,0,0,0,0,0
101400,290.78897,290.81354,291.09253,0,0,0,0,0,0
102000,290.7578,290.78223,291.06726,0,0,0,0,0,0
102600,290.72665,290.75095,291.0419,0,0,0,0,0,0
103200,290.69547,290.7196,291.0164,0,0,0,0,0,0
103800,290.6642,290.68823,290.9908,0,0,0,0,0,0
104400,290.63297,290.65686,290.96512,0,0,0,0,0,0
105000,290.60193,290.6257,290.9395,0,0,0,0,0,0
105600,290.571,290.59467,290.91397,0,0,0,0,0,0
106200,290.54022,290.56372,290.88843,0,0,0,0,0,0
106800,290.5095,290.5329,290.86288,0,0,0,0,0,0
107400,290.4789,290.50217,290.83737,0,0,0,0,0,0
108000,290.44843,290.47156,290.81183,0,0,0,0,0,0
108600,290.41806,290.44107,290.78635,0,0,0,0,0,0
109200,290.38766,290.41055,290.7607,0,0,0,0,0,0
109800,290.35733,290.3801,290.73505,0,0,0,0,0,0
110400,290.32706,290.34967,290.70932,0,0,0,0,0,0
111000,290.2968,290.3193,290.68356,0,0,0,0,0,0
111600,290.2666,290.289,290.65775,0,0,0,0,0,0
112200,290.03387,290.0551,290.75296,0,0,0,0,0,0
112800,290.08197,290.09348,290.83328,16774.059,16389.229,0,0,0,0
113400,290.99252,290.9903,290.9008,38082.246,37699.16,0,0,0,0
114000,292.2978,292.28644,290.95755,47791.082,47507.535,0,0,0,0
114600,293.42838,293.42175,291.00528,46381.05,46348.82,0,0,0,0
115200,294.08694,294.0857,291.0454,38550.203,38531.258,0,0,0,0
115800,294.2403,294.24274,291.07913,28624.607,28588.291,0,0,0,0
116400,294.02765,294.03177,291.10754,20200.885,20129.334,0,0,0,0
117000,293.64566,293.65082,291.13147,15104.512,14987.067,0,0,0,0
117600,293.26675,293.2739,291.1516,13541.616,13362.875,0,0,0,0
118200,292.99875,293.00983,291.1686,14618.031,14347.402,0,0,0,0
118800,292.88,292.89597,291.18295,16985.988,16578.043,0,0,0,0
119400,292.8936,292.90988,291.1951,19400.969,18842.447,0,0,0,0
120000,292.99008,293.00235,291.20535,21026.498,20348.64,0,0,0,0
120600,293.1115,293.1181,291.21408,21553.29,20807.219,0,0,0,0
121200,293.21213,293.21326,291.22147,21116.979,20353.02,0,0,0,0
121800,293.268,293.2644,291.22775,20101.693,19363.629,0,0,0,0
122400,293.2769,293.27008,291.23303,18940.234,18259.969,0,0,0,0
123000,293.25168,293.2436,291.23743,17967.807,17359.72,0,0,0,0
123600,293.21136,293.20374,291.2411,17350.78,16813.246,0,0,0,0
124200,293.173,293.16684,291.24414,17095.3,16616.068,0,0,0,0
124800,293.1475,293.1432,291.24673,17097.494,16659.75,0,0,0,0
125400,293.13828,293.1356,291.2489,17207.377,16795.65,0,0,0,0
126000,293.1423,293.1406,291.25067,17295.059,16899.434,0,0,0,0
126600,293.1533,293.1518,291.2521,17286.732,16904.209,0,0,0,0
127200,293.16504,293.16315,291.25323,17167.719,16801.05,0,0,0,0
127800,293.17325,293.1707,291.25418,16966.066,16621.168,0,0,0,0
128400,293.17618,293.17294,291.2549,16730.074,16413.361,0,0,0,0
129000,293.1743,293.17056,291.2555,16505.93,16222.187,0,0,0,0
129600,293.16934,293.16553,291.25592,16323.844,16074.565,0,0,0,0
130200,293.16336,293.1599,291.25623,16195.202,15977.66,0,0,0,0
130800,293.15793,293.1553,291.25635,16116.723,15924.458,0,0,0,0
131400,293.15414,293.15237,291.25638,16075.341,15900.267,0,0,0,0
132000,293.15228,293.15125,291.25626,16053.666,15888.415,0,0,0,0
132600,293.15216,293.15158,291.25604,16035.677,15874.675,0,0,0,0
133200,293.15314,293.15262,291.25574,16009.178,15850.612,0,0,0,0
133800,293.1543,293.1536,291.2554,15970.473,15816.664,0,0,0,0
134400,293.15506,293.1541,291.25504,15921.047,15774.281,0,0,0,0
135000,293.15503,293.15405,291.2546,15870.484,15732.377,0,0,0,0
135600,293.15436,293.15356,291.25418,15826.07,15696.235,0,0,0,0
136200,293.15332,293.1529,291.25372,15792.374,15668.719,0,0,0,0
136800,293.15256,293.1524,291.25323,15769.184,15647.994,0,0,0,0
137400,293.15204,293.15204,291.25275,15753.59,15632.531,0,0,0,0
138000,293.15167,293.15158,291.2522,15742.034,15620.474,0,0,0,0
138600,293.15088,293.15054,291.2516,15735.3125,15615.121,0,0,0,0
139200,293.14957,293.14896,291.2509,15738.883,15622.037,0,0,0,0
139800,293.14752,293.14676,291.25006,15758.373,15646.88,0,0,0,0
140400,293.14508,293.14432,291.24905,15798.549,15693.081,0,0,0,0
141000,293.14276,293.14215,291.2479,15857.483,15757.482,0,0,0,0
141600,293.14096,293.14053,291.24658,15933.683,15837.892,0,0,0,0
142200,293.14017,293.13992,291.2451,16018.695,15925.412,0,0,0,0
142800,293.14035,293.14032,291.24347,16103.589,16011.505,0,0,0,0
143400,293.1416,293.14163,291.2417,16180.647,16088.688,0,0,0,0
144000,293.14343,293.14346,291.2398,16243.35,16151.374,0,0,0,0
144600,293.14545,293.14542,291.2378,16290.02,16198.354,0,0,0,0
145200,293.1471,293.14694,291.23566,16321.195,16230.721,0,0,0,0
145800,293.14798,293.14774,291.2334,16344.92,16256.484,0,0,0,0
146400,293.14825,293.14795,291.23105,16364.716,16278.886,0,0,0,0
147000,293.14795,293.1476,291.22855,16385.49,16302.583,0,0,0,0
147600,293.14737,293.14706,291.22586,16413.586,16333.337,0,0,0,0
148200,293.1469,293.1466,291.22308,16443.775,16365.942,0,0,0,0
148800,293.14655,293.1463,291.22025,16476.145,16400.479,0,0,0,0
149400,293.14642,293.14618,291.2173,16509.25,16435.434,0,0,0,0
150000,293.14633,293.14612,291.2143,16542.326,16470.3,0,0,0,0
150600,293.14633,293.14615,291.2112,16575.016,16504.662,0,0,0,0
151200,293.14642,293.14624,291.20807,16607.076,16538.326,0,0,0,0
151800,292.90942,292.91125,291.08237,0,0,0,0,0,0
152400,292.65735,292.6612,290.96838,0,0,0,0,0,0
153000,292.4367,292.4427,290.86584,0,0,0,0,0,0
153600,292.24506,292.25296,290.7743,0,0,0,0,0,0
154200,292.07846,292.08798,290.69257,0,0,0,0,0,0
154800,291.93298,291.9439,290.61942,0,0,0,0,0,0
155400,291.80542,291.8175,290.55374,0,0,0,0,0,0
156000,291.69193,291.70493,290.4943,0,0,0,0,0,0
156600,291.5912,291.60498,290.44055,0,0,0,0,0,0
157200,291.50055,291.51495,290.39157,0,0,0,0,0,0
157800,291.4194,291.4343,290.34705,0,0,0,0,0,0
158400,291.34537,291.3607,290.306,0,0,0,0,0,0
159000,291.27734,291.29297,290.26794,0,0,0,0,0,0
159600,291.2147,291.23056,290.23257,0,0,0,0,0,0
160200,291.1562,291.17224,290.19934,0,0,0,0,0,0
160800,291.1013,291.11746,290.16797,0,0,0,0,0,0
161400,291.04916,291.06543,290.13803,0,0,0,0,0,0
162000,290.99918,291.01553,290.10922,0,0,0,0,0,0
162600,290.95096,290.96735,290.0813,0,0,0,0,0,0
163200,290.90424,290.92062,290.05414,0,0,0,0,0,0
163800,290.8587,290.87512,290.02753,0,0,0,0,0,0
164400,290.8142,290.83063,290.00137,0,0,0,0,0,0
165000,290.7706,290.78702,289.97562,0,0,0,0,0,0
165600,290.72778,290.74414,289.95016,0,0,0,0,0,0
166200,290.68558,290.70193,289.92493,0,0,0,0,0,0
166800,290.6439,290.66022,289.89984,0,0,0,0,0,0
167400,290.60263,290.61887,289.8748,0,0,0,0,0,0
168000,290.5616,290.57782,289.84973,0,0,0,0,0,0
168600,290.52106,290.5372,289.82483,0,0,0,0,0,0
169200,290.48083,290.49692,289.80002,0,0,0,0,0,0
169800,290.44107,290.4571,289.77536,0,0,0,0,0,0
170400,290.4023,290.41827,289.75137,0,0,0,0,0,0
171000,290.3645,290.38037,289.72794,0,0,0,0,0,0
171600,290.3276,290.34344,289.70505,0,0,0,0,0,0
172200,290.29166,290.3074,289.6826,0,0,0,0,0,0
172800,290.2567,290.2724,289.66068,0,0,0,0,0,0
173400,290.2225,290.2381,289.63895,0,0,0,0,0,0
174000,290.18857,290.2041,289.62827,0,0,845.36115,0,0,0
174600,290.15485,290.1703,289.7315,0,0,3513.7139,0,0,0
175200,290.12125,290.13666,289.93216,0,0,5053.522,0,0,0
175800,290.0878,290.10312,290.1516,0,0,5255.679,0,0,0
176400,290.05444,290.06967,290.32138,0,0,4359.3667,0,0,0
177000,290.02115,290.03632,290.40207,0,0,2875.7935,0,0,0
177600,289.98795,290.00302,290.38672,0,0,1390.7548,0,0,0
178200,289.95477,289.9698,290.30048,0,0,373.0121,0,0,0
178800,289.92163,289.93655,290.18512,0,0,43.166126,0,0,0
179400,289.8885,289.90335,290.0819,0,0,364.18976,0,0,0
180000,289.85538,289.87015,290.02054,0,0,1106.1969,0,0,0
180600,289.82227,289.83698,290.01065,0,0,1957.7379,0,0,0
181200,289.78912,289.80377,290.04358,0,0,2645.976,0,0,0
181800,289.75595,289.77048,290.09995,0,0,3008.685,0,0,0
182400,289.72272,289.73718,290.158,0,0,3014.337,0,0,0
183000,289.68954,289.70395,290.2002,0,0,2744.0027,0,0,0
183600,289.65656,289.67087,290.21686,0,0,2345.251,0,0,0
184200,289.62384,289.6381,290.20786,0,0,1976.9475,0,0,0
184800,289.59143,289.60562,290.18155,0,0,1756.2008,0,0,0
185400,289.56662,289.5734,290.15012,1438.6823,0,1725.6735,0,0,0
186000,289.68573,289.61328,290.124,5927.6445,4113.7983,1860.2134,0,0,0
186600,289.9129,289.80603,290.11002,8443.466,7571.4575,2093.089,0,0,0
187200,290.14816,290.04825,290.1099,8783.606,8852.178,2340.2368,0,0,0
187800,290.31598,290.25235,290.12082,7467.8447,8179.99,2530.6936,0,0,0
188400,290.38336,290.3651,290.13712,5387.5864,6331.7256,2625.4844,0,0,0
189000,290.35593,290.37686,290.15262,3429.2466,4233.796,2623.4678,0,0,0
189600,290.26767,290.31067,290.16278,2209.1023,2644.3003,2553.5042,0,0,0
190200,290.16367,290.20877,290.16565,1935.1261,1953.6722,2458.8638,0,0,0
190800,290.08197,290.11398,290.1619,2452.1155,2154.6443,2380.9534,0,0,0
191400,290.0426,290.05493,290.1541,3394.0735,2954.69,2347.287,0,0,0
192000,290.04623,290.04044,290.14548,4361.825,3951.1653,2366.1667,0,0,0
192600,290.07962,290.0626,290.1388,5060.515,4792.551,2428.2654,0,0,0
193200,290.124,290.10416,290.1357,5362.1396,5274.465,2512.9646,0,0,0
193800,290.16232,290.14673,290.13644,5298.9966,5362.325,2596.8674,0,0,0
194400,290.18427,290.1766,290.14005,5009.2085,5154.7056,2661.276,0,0,0
195000,290.18716,290.18777,290.14496,4665.655,4816.596,2696.5593,0,0,0
195600,290.1753,290.18176,290.14935,4412.637,4511.055,2703.8909,0,0,0
196200,290.15656,290.1652,290.15198,4325.3716,4346.0107,2693.3276,0,0,0
196800,290.13885,290.1463,290.15234,4403.8105,4353.3823,2678.543,0,0,0
197400,290.12756,290.13177,290.15085,4594.404,4500.488,2671.292,0,0,0
198000,290.12463,290.12506,290.14838,4823.824,4720.6987,2678.2937,0,0,0
198600,290.72202,290.71954,290.25482,37210.285,37126.293,2130.7297,0,0,0
199200,291.88315,291.8807,290.3067,48000,48000,1211.3567,0,0,0
199800,292.88232,292.88193,290.2988,48000,48000,283.34467,0,0,0
200400,293.59036,293.59137,290.25378,45177.68,45170.664,0,0,0,0
201000,293.9275,293.92908,290.2115,38394.688,38373.645,0,0,0,0
201600,293.93008,293.93152,290.174,31157.316,31122.607,0,0,0,0
202200,293.72183,293.72275,290.14078,25587.215,25543.379,0,0,0,0
202800,293.44202,293.44284,290.1113,22530.137,22479.396,0,0,0,0
203400,293.19888,293.2014,290.0851,21789.531,21720.475,0,0,0,0
204000,293.0484,293.05505,290.0635,22566.352,22445.906,117.37862,0,0,0
204600,293.0002,293.0139,290.06348,23919.31,23688.826,651.8067,0,0,0
205200,293.03076,293.05255,290.09238,25082.541,24666.518,1040.2411,0,0,0
205800,293.10156,293.12515,290.1324,25639.957,25008.355,1186.8282,0,0,0
206400,293.17642,293.1953,290.16934,25505.855,24692.932,1102.5636,0,0,0
207000,293.23096,293.24197,290.1928,24837.434,23912.357,860.65247,0,0,0
207600,293.2557,293.25833,290.19858,23900.307,22939.066,566.05756,0,0,0
